# Matter power spectrum P(k) at redshift z=0
# for k=1.04829e-05 to 66.9325 h/Mpc,
# number of wavenumbers equal to 621
#    1:k (h/Mpc)              2:P (Mpc/h)^3        
       1.048294959306e-05       4.748742519136e+01 
       2.340909221291e-05       1.031882068177e+02 
       3.638100117708e-05       1.579832796490e+02 
       4.943382439187e-05       2.124363539756e+02 
       6.260329507525e-05       2.668728729339e+02 
       7.592605261090e-05       3.215395982311e+02 
       8.943997372945e-05       3.766494589794e+02 
       1.031845184502e-04       4.323999366235e+02 
       1.172010952503e-04       4.889826013121e+02 
       1.315334499627e-04       5.465888993030e+02 
       1.462280829078e-04       6.054142374419e+02 
       1.613346987010e-04       6.656611768032e+02 
       1.769066929887e-04       7.275422131590e+02 
       1.930016799764e-04       7.912823129816e+02 
       2.096820639236e-04       8.571213921187e+02 
       2.270156566478e-04       9.253167428844e+02 
       2.450763413394e-04       9.961455178924e+02 
       2.639447803977e-04       1.069907205755e+03 
       2.837091612809e-04       1.146926140283e+03 
       3.044659691716e-04       1.227553959993e+03 
       3.263207682009e-04       1.312171956637e+03 
       3.493889636292e-04       1.401193182863e+03 
       3.737965053683e-04       1.495064176571e+03 
       3.996804782897e-04       1.594266026526e+03 
       4.271895069629e-04       1.699314564806e+03 
       4.564838823876e-04       1.810759260473e+03 
       4.877352974213e-04       1.929180410693e+03 
       5.211260587113e-04       2.055184189299e+03 
       5.568476304066e-04       2.189394954834e+03 
       5.950983649866e-04       2.332444455503e+03 
       6.360802969340e-04       2.484957532853e+03 
       6.799949238826e-04       2.647534163534e+03 
       7.270379836287e-04       2.820728157140e+03 
       7.773933551410e-04       3.005023118805e+03 
       8.312263594120e-04       3.200807059669e+03 
       8.886768915223e-04       3.408347398115e+03 
       9.498529466315e-04       3.627768588413e+03 
       1.014825171455e-03       3.859034960496e+03 
       1.083623045666e-03       4.101940798188e+03 
       1.156233159689e-03       4.356109416156e+03 
       1.232599820733e-03       4.621001581349e+03 
       1.312627931360e-03       4.895933123228e+03 
       1.396187806312e-03       5.180073283313e+03 
       1.483121383279e-03       5.472535847327e+03 
       1.573249180082e-03       5.772377246752e+03 
       1.666377361007e-03       6.078610691479e+03 
       1.762304376594e-03       6.390246471570e+03 
       1.860826795684e-03       6.706314966594e+03 
       1.961744115418e-03       7.025884775308e+03 
       2.064862483200e-03       7.348076423362e+03 
       2.169997376979e-03       7.672071190348e+03 
       2.276975362074e-03       7.997116521279e+03 
       2.385635078460e-03       8.322527586732e+03 
       2.495827620632e-03       8.647686679845e+03 
       2.607416462250e-03       8.972041378563e+03 
       2.720277057971e-03       9.295099634648e+03 
       2.834296231266e-03       9.616427522776e+03 
       2.949371433523e-03       9.935642420637e+03 
       3.065409938599e-03       1.025240965041e+04 
       3.182328019170e-03       1.056643843845e+04 
       3.300050136931e-03       1.087747548378e+04 
       3.418508167635e-03       1.118530321222e+04 
       3.537640673725e-03       1.148973154627e+04 
       3.657392231306e-03       1.179060173843e+04 
       3.777712814022e-03       1.208777761084e+04 
       3.898557233570e-03       1.238114436972e+04 
       4.019884634724e-03       1.267060585487e+04 
       4.141658041658e-03       1.295608513462e+04 
       4.263843951745e-03       1.323751747416e+04 
       4.386411972771e-03       1.351485013920e+04 
       4.509334499493e-03       1.378804690299e+04 
       4.632586425604e-03       1.405707568270e+04 
       4.756144887409e-03       1.432191227395e+04 
       4.879989035791e-03       1.458254721529e+04 
       5.004099833329e-03       1.483897636373e+04 
       5.128459873752e-03       1.509120695633e+04 
       5.253053221190e-03       1.533922915133e+04 
       5.377865266953e-03       1.558307070830e+04 
       5.502882601834e-03       1.582272805975e+04 
       5.628092902131e-03       1.605821946579e+04 
       5.753484827839e-03       1.628957012297e+04 
       5.879047931592e-03       1.651679845633e+04 
       6.004772577142e-03       1.673992395002e+04 
       6.130649866283e-03       1.695899307140e+04 
       6.256671573278e-03       1.717401611439e+04 
       6.382830085927e-03       1.738502724467e+04 
       6.509118352564e-03       1.759206505690e+04 
       6.635529834305e-03       1.779515131888e+04 
       6.762058461984e-03       1.799432917149e+04 
       6.888698597270e-03       1.818963273656e+04 
       7.015444997508e-03       1.838109399556e+04 
       7.142292783895e-03       1.856875045470e+04 
       7.269237412634e-03       1.875263903039e+04 
       7.396274648769e-03       1.893278807915e+04 
       7.523400542400e-03       1.910924569388e+04 
       7.650611407063e-03       1.928205339898e+04 
       7.777903800034e-03       1.945123503702e+04 
       7.905274504381e-03       1.961684074019e+04 
       8.032720512580e-03       1.977889960827e+04 
       8.160239011548e-03       1.993745673826e+04 
       8.287827368958e-03       2.009253326249e+04 
       8.415483120703e-03       2.024419680428e+04 
       8.543203959417e-03       2.039246167338e+04 
       8.670987723937e-03       2.053737492795e+04 
       8.798832389631e-03       2.067896976108e+04 
       8.926736059513e-03       2.081728436905e+04 
       9.054696956058e-03       2.095235998462e+04 
       9.182713413679e-03       2.108422763828e+04 
       9.310783871787e-03       2.121292546430e+04 
       9.438906868395e-03       2.133848874223e+04 
       9.567081034211e-03       2.146095407900e+04 
       9.695305087186e-03       2.158035214946e+04 
       9.823577827471e-03       2.169673093366e+04 
       9.951898132758e-03       2.181010445314e+04 
       1.008026495396e-02       2.192051680566e+04 
       1.020867731121e-02       2.202800788240e+04 
       1.033713429018e-02       2.213260969883e+04 
       1.046563503861e-02       2.223434492707e+04 
       1.059417876315e-02       2.233326067060e+04 
       1.072276472640e-02       2.242937949380e+04 
       1.085139224415e-02       2.252273641234e+04 
       1.098006068284e-02       2.261337198187e+04 
       1.110876945719e-02       2.270130736769e+04 
       1.123751802800e-02       2.278658431404e+04 
       1.136630590008e-02       2.286922759419e+04 
       1.149513262037e-02       2.294926472590e+04 
       1.162399777619e-02       2.302673915137e+04 
       1.175290099351e-02       2.310167472366e+04 
       1.188184193551e-02       2.317410247744e+04 
       1.201082030110e-02       2.324405877449e+04 
       1.213983582360e-02       2.331156461434e+04 
       1.226888826955e-02       2.337665300070e+04 
       1.239797743749e-02       2.343935571727e+04 
       1.252710315697e-02       2.349971049915e+04 
       1.265626528751e-02       2.355772402114e+04 
       1.278546371770e-02       2.361345045300e+04 
       1.291469836437e-02       2.366690168946e+04 
       1.304396917176e-02       2.371813042469e+04 
       1.317327611085e-02       2.376712883893e+04 
       1.330261917862e-02       2.381395302227e+04 
       1.343199839748e-02       2.385860527087e+04 
       1.356141381467e-02       2.390113383263e+04 
       1.369086550175e-02       2.394155723531e+04 
       1.382035355412e-02       2.397989737450e+04 
       1.394987809055e-02       2.401619298004e+04 
       1.407943925283e-02       2.405045523922e+04 
       1.420903720536e-02       2.408272592825e+04 
       1.433867213485e-02       2.411300899092e+04 
       1.446834425002e-02       2.414135740641e+04 
       1.459805378132e-02       2.416776970865e+04 
       1.472780098073e-02       2.419228233496e+04 
       1.485758612153e-02       2.421491821124e+04 
       1.498740949814e-02       2.423570757216e+04 
       1.511727142599e-02       2.425466688482e+04 
       1.524717224134e-02       2.427182086157e+04 
       1.537711230126e-02       2.428719264648e+04 
       1.550709198350e-02       2.430080249050e+04 
       1.563711168646e-02       2.431268258777e+04 
       1.576717182917e-02       2.432285920093e+04 
       1.589727285128e-02       2.433132968430e+04 
       1.602741521308e-02       2.433815333673e+04 
       1.615759939550e-02       2.434332197657e+04 
       1.628782590022e-02       2.434687610914e+04 
       1.641809524972e-02       2.434882417065e+04 
       1.654840798736e-02       2.434920063297e+04 
       1.667876467752e-02       2.434801571785e+04 
       1.680916590569e-02       2.434528471443e+04 
       1.693961227869e-02       2.434105394651e+04 
       1.707010442474e-02       2.433533691202e+04 
       1.720064299374e-02       2.432814623096e+04 
       1.733122865739e-02       2.431949845081e+04 
       1.746186210947e-02       2.430942398379e+04 
       1.759254406602e-02       2.429793426451e+04 
       1.772327526565e-02       2.428506161155e+04 
       1.785405646974e-02       2.427082577400e+04 
       1.798488846279e-02       2.425525229335e+04 
       1.811577205269e-02       2.423832115419e+04 
       1.824670807101e-02       2.422009063397e+04 
       1.837769737341e-02       2.420057885133e+04 
       1.850874083990e-02       2.417979304543e+04 
       1.863983937529e-02       2.415775323033e+04 
       1.877099390952e-02       2.413448709344e+04 
       1.890220539809e-02       2.411001211931e+04 
       1.903347482244e-02       2.408433843674e+04 
       1.916480319047e-02       2.405749466365e+04 
       1.929619153689e-02       2.402948312802e+04 
       1.942764092378e-02       2.400036340623e+04 
       1.955915244102e-02       2.397009616651e+04 
       1.969072720682e-02       2.393875505707e+04 
       1.982236636827e-02       2.390630595901e+04 
       1.995407110185e-02       2.387279726771e+04 
       2.008584261401e-02       2.383826449298e+04 
       2.021768214177e-02       2.380269844888e+04 
       2.034959095330e-02       2.376611852533e+04 
       2.048157034855e-02       2.372853738314e+04 
       2.061362165992e-02       2.368997087228e+04 
       2.074574625292e-02       2.365047337526e+04 
       2.087794552684e-02       2.361003393122e+04 
       2.101022091547e-02       2.356864980134e+04 
       2.114257388787e-02       2.352638504116e+04 
       2.127500594908e-02       2.348320144471e+04 
       2.140751864094e-02       2.343916932880e+04 
       2.154011354288e-02       2.339424740315e+04 
       2.167279227278e-02       2.334855042461e+04 
       2.180555648778e-02       2.330196188123e+04 
       2.193840788523e-02       2.325461088055e+04 
       2.207134820357e-02       2.320642253882e+04 
       2.220437922328e-02       2.315746987254e+04 
       2.233750276785e-02       2.310777134353e+04 
       2.247072070481e-02       2.305730542403e+04 
       2.260403494672e-02       2.300609677304e+04 
       2.273744745229e-02       2.295419944646e+04 
       2.287096022745e-02       2.290157143852e+04 
       2.300457532649e-02       2.284827431925e+04 
       2.313829485326e-02       2.279428914141e+04 
       2.327212096231e-02       2.273966025133e+04 
       2.340605586023e-02       2.268435641853e+04 
       2.354010180687e-02       2.262845424713e+04 
       2.367426111667e-02       2.257190347487e+04 
       2.380853616007e-02       2.251477841310e+04 
       2.394292936489e-02       2.245696859493e+04 
       2.407744321778e-02       2.239871449732e+04 
       2.421208026575e-02       2.233982148206e+04 
       2.434684311771e-02       2.228039755712e+04 
       2.448173444607e-02       2.222046410213e+04 
       2.461675698839e-02       2.215994867125e+04 
       2.475191354909e-02       2.209895891305e+04 
       2.488720700124e-02       2.203743392095e+04 
       2.502264028833e-02       2.197542522788e+04 
       2.515821642619e-02       2.191298212105e+04 
       2.529393850493e-02       2.185006469974e+04 
       2.542980969093e-02       2.178667559006e+04 
       2.556583322892e-02       2.172287280347e+04 
       2.570201244413e-02       2.165859274742e+04 
       2.583835074453e-02       2.159396507561e+04 
       2.597485162308e-02       2.152889538132e+04 
       2.611151866012e-02       2.146343222065e+04 
       2.624835552583e-02       2.139757106386e+04 
       2.638536598276e-02       2.133137427300e+04 
       2.652255388845e-02       2.126483598845e+04 
       2.665992319818e-02       2.119777796206e+04 
       2.679747796773e-02       2.113059497295e+04 
       2.693522235635e-02       2.106305691547e+04 
       2.707316062972e-02       2.099515730991e+04 
       2.721129716313e-02       2.092693090149e+04 
       2.734963644469e-02       2.085839946956e+04 
       2.748818307870e-02       2.078964208967e+04 
       2.762694178911e-02       2.072056905723e+04 
       2.776591742315e-02       2.065129323610e+04 
       2.790511495509e-02       2.058169191040e+04 
       2.804453949007e-02       2.051184362391e+04 
       2.818419626817e-02       2.044179880099e+04 
       2.832409066860e-02       2.037149599144e+04 
       2.846422821403e-02       2.030095546079e+04 
       2.860461457508e-02       2.023021308165e+04 
       2.874525557507e-02       2.015932048902e+04 
       2.888615719482e-02       2.008818335421e+04 
       2.902732557775e-02       2.001689502347e+04 
       2.916876703517e-02       1.994538479610e+04 
       2.931048805169e-02       1.987372790951e+04 
       2.945249529100e-02       1.980193032376e+04 
       2.959479560174e-02       1.972995235242e+04 
       2.973739602368e-02       1.965780583428e+04 
       2.988030379420e-02       1.958555174752e+04 
       3.002352635492e-02       1.951315626547e+04 
       3.016707135876e-02       1.944066423134e+04 
       3.031094667714e-02       1.936800979376e+04 
       3.045516040763e-02       1.929530307920e+04 
       3.059972088186e-02       1.922239565911e+04 
       3.074463667375e-02       1.914945987646e+04 
       3.088991660818e-02       1.907645174073e+04 
       3.103556976999e-02       1.900333683898e+04 
       3.118160551339e-02       1.893012976309e+04 
       3.132803347180e-02       1.885690407410e+04 
       3.147486356816e-02       1.878356337529e+04 
       3.162210602567e-02       1.871016027664e+04 
       3.176977137907e-02       1.863671295639e+04 
       3.191787048643e-02       1.856319894894e+04 
       3.206641454148e-02       1.848965315442e+04 
       3.221541508661e-02       1.841603260026e+04 
       3.236488402637e-02       1.834249173265e+04 
       3.251483364174e-02       1.826880839694e+04 
       3.266527660501e-02       1.819513860195e+04 
       3.281622599552e-02       1.812150176443e+04 
       3.296769531605e-02       1.804780857174e+04 
       3.311969851014e-02       1.797404320127e+04 
       3.327224998026e-02       1.790030840866e+04 
       3.342536460691e-02       1.782664133265e+04 
       3.357905776873e-02       1.775292515771e+04 
       3.373334536373e-02       1.767921724072e+04 
       3.388824383149e-02       1.760552738154e+04 
       3.404377017677e-02       1.753181403400e+04 
       3.419994199423e-02       1.745812232897e+04 
       3.435677749463e-02       1.738446359914e+04 
       3.451429553238e-02       1.731077431458e+04 
       3.467251563477e-02       1.723720305169e+04 
       3.483145803276e-02       1.716356588906e+04 
       3.499114369358e-02       1.709004490899e+04 
       3.515159435524e-02       1.701647836232e+04 
       3.531283256306e-02       1.694302237918e+04 
       3.547488170837e-02       1.686951408367e+04 
       3.563776606956e-02       1.679610276992e+04 
       3.580151085566e-02       1.672271653123e+04 
       3.596614225250e-02       1.664935765556e+04 
       3.613168747190e-02       1.657602292053e+04 
       3.629817480392e-02       1.650274816277e+04 
       3.646563367236e-02       1.642949360296e+04 
       3.663409469404e-02       1.635631168122e+04 
       3.680358974183e-02       1.628318463358e+04 
       3.697415201192e-02       1.621004037777e+04 
       3.714581609564e-02       1.613698946066e+04 
       3.731861805618e-02       1.606394658058e+04 
       3.749259551060e-02       1.599095925000e+04 
       3.766778771761e-02       1.591801331066e+04 
       3.784423567158e-02       1.584506881766e+04 
       3.802198220334e-02       1.577222413870e+04 
       3.820107208836e-02       1.569938210107e+04 
       3.838155216287e-02       1.562659187108e+04 
       3.856347144885e-02       1.555380414701e+04 
       3.874688128844e-02       1.548104207922e+04 
       3.893183548882e-02       1.540834925011e+04 
       3.911839047843e-02       1.533570759145e+04 
       3.930660547571e-02       1.526303898988e+04 
       3.949654267145e-02       1.519040648710e+04 
       3.968826742622e-02       1.511777981100e+04 
       3.988184848421e-02       1.504519755519e+04 
       4.007735820531e-02       1.497265261060e+04 
       4.027487281720e-02       1.489997532000e+04 
       4.047447268952e-02       1.482745567282e+04 
       4.067624263258e-02       1.475481876770e+04 
       4.088027222309e-02       1.468221050777e+04 
       4.108665616006e-02       1.460954008744e+04 
       4.129549465402e-02       1.453690783371e+04 
       4.150689385358e-02       1.446421069044e+04 
       4.172096631344e-02       1.439146812705e+04 
       4.193783150887e-02       1.431871618266e+04 
       4.215761640212e-02       1.424585879661e+04 
       4.238045606717e-02       1.417294905361e+04 
       4.260649438011e-02       1.409997772263e+04 
       4.283588478332e-02       1.402693282008e+04 
       4.306879113322e-02       1.395375666658e+04 
       4.330538864235e-02       1.388048925334e+04 
       4.354586492877e-02       1.380711606382e+04 
       4.379042118724e-02       1.373359495039e+04 
       4.403927349945e-02       1.365991511224e+04 
       4.429265430321e-02       1.358605966355e+04 
       4.455081404374e-02       1.351204541875e+04 
       4.481402303450e-02       1.343779510255e+04 
       4.508257355947e-02       1.336333170824e+04 
       4.535678225476e-02       1.328863966173e+04 
       4.563699281433e-02       1.321366920290e+04 
       4.592357907284e-02       1.313840075942e+04 
       4.621694852910e-02       1.306284045143e+04 
       4.651754638592e-02       1.298691602026e+04 
       4.682586019731e-02       1.291062687030e+04 
       4.714242523289e-02       1.283390959345e+04 
       4.746783069248e-02       1.275674547797e+04 
       4.780272693253e-02       1.267908652149e+04 
       4.814783390169e-02       1.260087750421e+04 
       4.850395102770e-02       1.252207692622e+04 
       4.887196885382e-02       1.244264446278e+04 
       4.925288279357e-02       1.236250317434e+04 
       4.964780946217e-02       1.228157730859e+04 
       5.005800615642e-02       1.219977967019e+04 
       5.048489419927e-02       1.211706163805e+04 
       5.093008704895e-02       1.203328447021e+04 
       5.139542430755e-02       1.194828698416e+04 
       5.188301306184e-02       1.186203214037e+04 
       5.239527836771e-02       1.177428639187e+04 
       5.293502516359e-02       1.168490143396e+04 
       5.350551448402e-02       1.159356127383e+04 
       5.411055754513e-02       1.150014089814e+04 
       5.475463206747e-02       1.140418805851e+04 
       5.544302600334e-02       1.130533087214e+04 
       5.618201442687e-02       1.120304217475e+04 
       5.697907523965e-02       1.109668424575e+04 
       5.784314752963e-02       1.098536417386e+04 
       5.878493090535e-02       1.086803504322e+04 
       5.981721119659e-02       1.074319310126e+04 
       6.095517113237e-02       1.060890261003e+04 
       6.221659412292e-02       1.046257343825e+04 
